# Matter power spectrum P(k) at redshift z=0
# for k=1.04545e-05 to 1.69273 h/Mpc,
# number of wavenumbers equal to 605
#    1:k (h/Mpc)              2:P (Mpc/h)^3        
       1.045452501306e-05       4.787723381386e+01 
       2.333048505441e-05       1.039700411715e+02 
       3.625171395453e-05       1.591499583138e+02 
       4.925295045149e-05       2.139830705054e+02 
       6.236950762531e-05       2.687958292394e+02 
       7.563758753179e-05       3.238354571280e+02 
       8.909460589209e-05       3.793150562920e+02 
       1.027795311535e-04       4.354320989856e+02 
       1.167332422694e-04       4.923779800930e+02 
       1.309989095809e-04       5.503438308303e+02 
       1.456224031870e-04       6.095245928771e+02 
       1.606527331337e-04       6.701222158420e+02 
       1.761425255721e-04       7.323484010244e+02 
       1.921485386686e-04       7.964271387736e+02 
       2.087322213940e-04       8.625971462081e+02 
       2.259603172469e-04       9.311142840339e+02 
       2.439055133027e-04       1.002253991284e+03 
       2.626471325225e-04       1.076313748672e+03 
       2.822718637098e-04       1.153615549302e+03 
       3.028745185646e-04       1.234508328037e+03 
       3.245587985560e-04       1.319370290406e+03 
       3.474380454262e-04       1.408611023131e+03 
       3.716359376681e-04       1.502673200459e+03 
       3.972870810329e-04       1.602033711992e+03 
       4.245374240445e-04       1.707203909817e+03 
       4.535444101466e-04       1.818728638479e+03 
       4.844767578357e-04       1.937183618467e+03 
       5.175137414733e-04       2.063170755435e+03 
       5.528438325036e-04       2.197310840111e+03 
       5.906625593754e-04       2.340233221683e+03 
       6.311694619269e-04       2.492562074599e+03 
       6.745640602607e-04       2.654899120165e+03 
       7.210408356515e-04       2.827802996706e+03 
       7.707833336025e-04       3.011765897858e+03 
       8.239576402228e-04       3.207188704402e+03 
       8.807056346168e-04       3.414356308874e+03 
       9.411385523009e-04       3.633415248449e+03 
       1.005331471105e-03       3.864356105952e+03 
       1.073319318002e-03       4.107002802147e+03 
       1.145094875504e-03       4.361010549740e+03 
       1.220609049273e-03       4.625872824614e+03 
       1.299773383283e-03       4.900937867871e+03 
       1.382464533267e-03       5.185409750310e+03 
       1.468530192593e-03       5.478420491593e+03 
       1.557795847699e-03       5.779055356956e+03 
       1.650071734029e-03       6.086347443048e+03 
       1.745159450292e-03       6.399322678544e+03 
       1.842857833300e-03       6.717022841951e+03 
       1.942967858064e-03       7.038523982721e+03 
       2.045296476369e-03       7.362950226393e+03 
       2.149659422745e-03       7.689483095017e+03 
       2.255883093268e-03       8.017367540340e+03 
       2.363805643078e-03       8.345913718220e+03 
       2.473277460590e-03       8.674496868826e+03 
       2.584161169464e-03       9.002555837811e+03 
       2.696331291429e-03       9.329588341260e+03 
       2.809673680571e-03       9.655149327987e+03 
       2.924084816604e-03       9.978844024038e+03 
       3.039471023588e-03       1.030032625374e+04 
       3.155747662576e-03       1.061929067406e+04 
       3.272838332073e-03       1.093547304782e+04 
       3.390674098841e-03       1.124864012469e+04 
       3.509192773017e-03       1.155859252839e+04 
       3.628338235268e-03       1.186515625083e+04 
       3.748059819280e-03       1.216818305170e+04 
       3.868311749847e-03       1.246754499347e+04 
       3.989052634864e-03       1.276313538888e+04 
       4.110245008277e-03       1.305486526474e+04 
       4.231854920393e-03       1.334265674495e+04 
       4.353851571615e-03       1.362645004872e+04 
       4.476206985635e-03       1.390619652765e+04 
       4.598895718198e-03       1.418185843595e+04 
       4.721894597783e-03       1.445340200372e+04 
       4.845182494784e-03       1.472076454039e+04 
       4.968740116072e-03       1.498402696322e+04 
       5.092549822110e-03       1.524310518899e+04 
       5.216595464072e-03       1.549802418022e+04 
       5.340862238690e-03       1.574883451551e+04 
       5.465336558799e-03       1.599551398137e+04 
       5.590005937793e-03       1.623804353587e+04 
       5.714858886378e-03       1.647571131594e+04 
       5.839884820237e-03       1.671001055304e+04 
       5.965073977350e-03       1.694021530933e+04 
       6.090417343874e-03       1.716631064963e+04 
       6.215906587633e-03       1.738846913723e+04 
       6.341533998348e-03       1.760663184062e+04 
       6.467292433864e-03       1.782092419071e+04 
       6.593175271721e-03       1.803133165928e+04 
       6.719176365468e-03       1.823755617849e+04 
       6.845290005225e-03       1.843966004462e+04 
       6.971510882019e-03       1.863830795673e+04 
       7.097834055509e-03       1.883308890194e+04 
       7.224254924732e-03       1.902405138113e+04 
       7.350769201555e-03       1.921115637111e+04 
       7.477372886569e-03       1.939437498224e+04 
       7.604062247151e-03       1.957426168721e+04 
       7.730833797500e-03       1.975039177207e+04 
       7.857684280434e-03       1.992345919726e+04 
       7.984610650777e-03       2.009239422148e+04 
       8.111610060188e-03       2.025779183503e+04 
       8.238679843281e-03       2.041973931900e+04 
       8.365817504921e-03       2.057818789360e+04 
       8.493020708584e-03       2.073321630120e+04 
       8.620287265680e-03       2.088486057231e+04 
       8.747615125745e-03       2.103314428530e+04 
       8.875002367434e-03       2.117812806446e+04 
       9.002447190232e-03       2.131975339493e+04 
       9.129947906824e-03       2.145816272127e+04 
       9.257502936065e-03       2.159338582613e+04 
       9.385110796496e-03       2.172542622809e+04 
       9.512770100362e-03       2.185433971079e+04 
       9.640479548082e-03       2.198013339310e+04 
       9.768237923147e-03       2.210285607422e+04 
       9.896044087391e-03       2.222251092192e+04 
       1.002389697662e-02       2.233918731956e+04 
       1.015179559656e-02       2.245287785743e+04 
       1.027973901912e-02       2.256363578297e+04 
       1.040772637887e-02       2.267148978461e+04 
       1.053575686988e-02       2.277646832790e+04 
       1.066382974266e-02       2.287866583247e+04 
       1.079194430141e-02       2.297790121687e+04 
       1.092009990143e-02       2.307452463259e+04 
       1.104829594674e-02       2.316824038686e+04 
       1.117653188780e-02       2.325933143374e+04 
       1.130480721947e-02       2.334772198866e+04 
       1.143312147909e-02       2.343347871040e+04 
       1.156147424463e-02       2.351665421256e+04 
       1.168986513310e-02       2.359711026858e+04 
       1.181829379893e-02       2.367506859441e+04 
       1.194675993255e-02       2.375050354654e+04 
       1.207526325904e-02       2.382339659138e+04 
       1.220380353691e-02       2.389386994559e+04 
       1.233238055689e-02       2.396184283044e+04 
       1.246099414088e-02       2.402740642126e+04 
       1.258964414095e-02       2.409060743030e+04 
       1.271833043840e-02       2.415144673727e+04 
       1.284705294290e-02       2.420991859008e+04 
       1.297581159167e-02       2.426612399274e+04 
       1.310460634879e-02       2.432006954131e+04 
       1.323343720448e-02       2.437175742962e+04 
       1.336230417445e-02       2.442119880870e+04 
       1.349120729937e-02       2.446844984916e+04 
       1.362014664429e-02       2.451351373786e+04 
       1.374912229819e-02       2.455644420065e+04 
       1.387813437349e-02       2.459734320091e+04 
       1.400718300567e-02       2.463597111636e+04 
       1.413626835288e-02       2.467269118973e+04 
       1.426539059562e-02       2.470723551514e+04 
       1.439454993645e-02       2.473980921615e+04 
       1.452374659967e-02       2.477042725902e+04 
       1.465298083115e-02       2.479909343347e+04 
       1.478225289806e-02       2.482499025673e+04 
       1.491156308874e-02       2.485054337931e+04 
       1.504091171251e-02       2.487344235435e+04 
       1.517029909956e-02       2.489364020659e+04 
       1.529972560087e-02       2.491364595123e+04 
       1.542919158806e-02       2.493021453162e+04 
       1.555869745342e-02       2.494658779908e+04 
       1.568824360984e-02       2.496026651355e+04 
       1.581783049077e-02       2.497229697900e+04 
       1.594745855030e-02       2.498257267602e+04 
       1.607712826311e-02       2.499126925234e+04 
       1.620684012460e-02       2.499817295121e+04 
       1.633659465090e-02       2.500331771531e+04 
       1.646639237898e-02       2.500691395759e+04 
       1.659623386677e-02       2.500900619057e+04 
       1.672611969327e-02       2.500841525585e+04 
       1.685605045871e-02       2.500816392460e+04 
       1.698602678468e-02       2.500547042995e+04 
       1.711604931433e-02       2.500109708159e+04 
       1.724611871260e-02       2.499539349088e+04 
       1.737623566636e-02       2.498817336664e+04 
       1.750640088470e-02       2.497938962740e+04 
       1.763661509915e-02       2.496920192824e+04 
       1.776687906395e-02       2.495666139758e+04 
       1.789719355633e-02       2.494365328975e+04 
       1.802755937680e-02       2.493023844954e+04 
       1.815797734948e-02       2.491454298918e+04 
       1.828844832242e-02       2.489669740910e+04 
       1.841897316792e-02       2.487904850618e+04 
       1.854955278296e-02       2.485936461708e+04 
       1.868018808951e-02       2.483824491594e+04 
       1.881088003498e-02       2.481536298400e+04 
       1.894162959258e-02       2.479238524908e+04 
       1.907243776181e-02       2.476769425488e+04 
       1.920330556887e-02       2.474185179103e+04 
       1.933423406715e-02       2.471460139308e+04 
       1.946522433770e-02       2.468628150190e+04 
       1.959627748973e-02       2.465693705223e+04 
       1.972739466115e-02       2.462570039254e+04 
       1.985857701911e-02       2.459350253256e+04 
       1.998982576053e-02       2.456086857219e+04 
       2.012114211272e-02       2.452697410030e+04 
       2.025252733395e-02       2.449190927300e+04 
       2.038398271408e-02       2.445687177529e+04 
       2.051550957522e-02       2.441907255806e+04 
       2.064710927236e-02       2.438187031948e+04 
       2.077878319408e-02       2.434207142239e+04 
       2.091053276322e-02       2.430223804647e+04 
       2.104235943768e-02       2.426112550299e+04 
       2.117426471110e-02       2.421929948824e+04 
       2.130625011367e-02       2.417734203213e+04 
       2.143831721294e-02       2.413371834940e+04 
       2.157046761462e-02       2.408864469842e+04 
       2.170270296346e-02       2.404360650317e+04 
       2.183502494413e-02       2.399732898488e+04 
       2.196743528211e-02       2.394930666077e+04 
       2.209993574463e-02       2.390135251935e+04 
       2.223252814165e-02       2.385318482075e+04 
       2.236521432686e-02       2.380358745092e+04 
       2.249799619867e-02       2.375332222308e+04 
       2.263087570131e-02       2.370160430476e+04 
       2.276385482592e-02       2.365023404871e+04 
       2.289693561165e-02       2.359713808451e+04 
       2.303012014684e-02       2.354369342657e+04 
       2.316341057022e-02       2.348982259106e+04 
       2.329680907215e-02       2.343572842823e+04 
       2.343031789588e-02       2.338022410507e+04 
       2.356393933886e-02       2.332368435403e+04 
       2.369767575414e-02       2.326678885350e+04 
       2.383152955174e-02       2.320968782105e+04 
       2.396550320006e-02       2.315167469303e+04 
       2.409959922746e-02       2.309302327469e+04 
       2.423382022371e-02       2.303386830126e+04 
       2.436816884163e-02       2.297430139170e+04 
       2.450264779871e-02       2.291423460280e+04 
       2.463725987882e-02       2.285312552618e+04 
       2.477200793393e-02       2.279204108725e+04 
       2.490689488595e-02       2.272998958039e+04 
       2.504192372858e-02       2.266756112943e+04 
       2.517709752921e-02       2.260495798852e+04 
       2.531241943097e-02       2.254137001592e+04 
       2.544789265472e-02       2.247757642763e+04 
       2.558352050124e-02       2.241348898166e+04 
       2.571930635338e-02       2.234852014993e+04 
       2.585525367835e-02       2.228335334611e+04 
       2.599136603008e-02       2.221775313298e+04 
       2.612764705166e-02       2.215208309648e+04 
       2.626410047780e-02       2.208532310589e+04 
       2.640073013751e-02       2.201888391696e+04 
       2.653753995673e-02       2.195135791410e+04 
       2.667453396117e-02       2.188409476507e+04 
       2.681171627915e-02       2.181622740448e+04 
       2.694909114464e-02       2.174790474293e+04 
       2.708666290031e-02       2.167902358773e+04 
       2.722443600079e-02       2.161010309310e+04 
       2.736241501595e-02       2.154104857132e+04 
       2.750060463439e-02       2.147123863425e+04 
       2.763900966699e-02       2.140170337608e+04 
       2.777763505064e-02       2.133155967515e+04 
       2.791648585205e-02       2.126114888329e+04 
       2.805556727181e-02       2.119039437006e+04 
       2.819488464848e-02       2.111946634474e+04 
       2.833444346290e-02       2.104834203381e+04 
       2.847424934271e-02       2.097697928520e+04 
       2.861430806694e-02       2.090533528206e+04 
       2.875462557084e-02       2.083352086697e+04 
       2.889520795093e-02       2.076142383424e+04 
       2.903606147021e-02       2.068926102304e+04 
       2.917719256356e-02       2.061679009952e+04 
       2.931860784340e-02       2.054434176476e+04 
       2.946031410557e-02       2.047131863484e+04 
       2.960231833544e-02       2.039871082708e+04 
       2.974462771428e-02       2.032524374415e+04 
       2.988724962592e-02       2.025195765450e+04 
       3.003019166360e-02       2.017852773669e+04 
       3.017346163727e-02       2.010492701917e+04 
       3.031706758103e-02       2.003122322713e+04 
       3.046101776101e-02       1.995739135142e+04 
       3.060532068354e-02       1.988352132464e+04 
       3.074998510372e-02       1.980973554869e+04 
       3.089502003431e-02       1.973524253238e+04 
       3.104043475506e-02       1.966098710130e+04 
       3.118623882247e-02       1.958667011909e+04 
       3.133244207997e-02       1.951221105118e+04 
       3.147905466856e-02       1.943789478308e+04 
       3.162608703797e-02       1.936328842127e+04 
       3.177354995835e-02       1.928851000221e+04 
       3.192145453246e-02       1.921393254073e+04 
       3.206981220850e-02       1.913917137352e+04 
       3.221863479353e-02       1.906446625320e+04 
       3.236793446754e-02       1.898941047532e+04 
       3.251772379824e-02       1.891455358264e+04 
       3.266801575652e-02       1.883944815123e+04 
       3.281882373278e-02       1.876444358212e+04 
       3.297016155400e-02       1.868946084156e+04 
       3.312204350171e-02       1.861465992580e+04 
       3.327448433094e-02       1.853951326106e+04 
       3.342749929005e-02       1.846444143914e+04 
       3.358110414171e-02       1.838939155991e+04 
       3.373531518496e-02       1.831426981117e+04 
       3.389014927842e-02       1.823913609921e+04 
       3.404562386482e-02       1.816399294134e+04 
       3.420175699688e-02       1.808893685738e+04 
       3.435856736453e-02       1.801412980668e+04 
       3.451607432385e-02       1.793883191635e+04 
       3.467429792742e-02       1.786382612392e+04 
       3.483325895662e-02       1.778888689576e+04 
       3.499297895571e-02       1.771366430609e+04 
       3.515348026790e-02       1.763877305714e+04 
       3.531478607362e-02       1.756386597059e+04 
       3.547692043107e-02       1.748895648421e+04 
       3.563990831923e-02       1.741394168202e+04 
       3.580377568355e-02       1.733900544663e+04 
       3.596854948443e-02       1.726407523538e+04 
       3.613425774886e-02       1.718922047392e+04 
       3.630092962529e-02       1.711462676378e+04 
       3.646859544204e-02       1.703954716256e+04 
       3.663728676962e-02       1.696500645571e+04 
       3.680703648710e-02       1.689015597144e+04 
       3.697787885300e-02       1.681537799976e+04 
       3.714984958101e-02       1.674062870524e+04 
       3.732298592094e-02       1.666603018558e+04 
       3.749732674527e-02       1.659145959016e+04 
       3.767291264196e-02       1.651703720248e+04 
       3.784978601387e-02       1.644222582578e+04 
       3.802799118541e-02       1.636783746046e+04 
       3.820757451712e-02       1.629328139827e+04 
       3.838858452886e-02       1.621871269745e+04 
       3.857107203236e-02       1.614421545786e+04 
       3.875509027400e-02       1.606975645693e+04 
       3.894069508880e-02       1.599532909052e+04 
       3.912794506670e-02       1.592080850012e+04 
       3.931690173222e-02       1.584661237728e+04 
       3.950762973895e-02       1.577207985726e+04 
       3.970019708017e-02       1.569773733209e+04 
       3.989467531741e-02       1.562326007200e+04 
       4.009113982860e-02       1.554868350037e+04 
       4.028967007806e-02       1.547418462171e+04 
       4.049034991040e-02       1.539994725182e+04 
       4.069326787112e-02       1.532525402575e+04 
       4.089851755668e-02       1.525089789167e+04 
       4.110619799744e-02       1.517621774506e+04 
       4.131641407703e-02       1.510154338958e+04 
       4.152927699257e-02       1.502704328514e+04 
       4.174490476035e-02       1.495218414074e+04 
       4.196342277244e-02       1.487750280643e+04 
       4.218496441052e-02       1.480257318279e+04 
       4.240967172394e-02       1.472769605518e+04 
       4.263769618017e-02       1.465258572726e+04 
       4.286919949696e-02       1.457736524901e+04 
       4.310435456697e-02       1.450193605741e+04 
       4.334334648730e-02       1.442647425906e+04 
       4.358637370823e-02       1.435108019880e+04 
       4.383364931791e-02       1.427511825525e+04 
       4.408540248240e-02       1.419933673941e+04 
       4.434188006369e-02       1.412318563664e+04 
       4.460334844238e-02       1.404656740553e+04 
       4.487009557604e-02       1.397007020982e+04 
       4.514243333028e-02       1.389298409881e+04 
       4.542070012581e-02       1.381596020664e+04 
       4.570526395341e-02       1.373846224795e+04 
       4.599652581814e-02       1.366045363702e+04 
       4.629492368658e-02       1.358227050157e+04 
       4.660093702541e-02       1.350373204540e+04 
       4.691509203784e-02       1.342498463233e+04 
       4.723796772686e-02       1.334501183048e+04 
       4.757020294186e-02       1.326511984412e+04 
       4.791250459995e-02       1.318446739187e+04 
       4.826565731606e-02       1.310311107549e+04 
       4.863053473054e-02       1.302105647374e+04 
       4.900811289056e-02       1.293844589875e+04 
       4.939948612838e-02       1.285488931705e+04 
       4.980588598831e-02       1.277050769989e+04 
       5.022870389377e-02       1.268488437616e+04 
       5.066951842244e-02       1.259839160799e+04 
       5.113012828376e-02       1.251096655907e+04 
       5.161259238028e-02       1.242146610652e+04 
       5.211927869902e-02       1.233137083701e+04 
       5.265292423706e-02       1.223896995668e+04 
       5.321670873291e-02       1.214433840195e+04 
       5.381434565749e-02       1.204798728853e+04 
       5.445019469944e-02       1.194883100050e+04 
       5.512940078587e-02       1.184635429271e+04 
       5.585806531872e-02       1.174042594720e+04 
       5.664345534382e-02       1.163097401292e+04 
       5.749425489006e-02       1.151586654328e+04 
       5.842085791008e-02       1.139471440792e+04 
       5.943569071704e-02       1.126592620499e+04 
       6.055352757495e-02       1.112705702371e+04 
       6.179171680997e-02       1.097645959998e+04 
