# dimensionless total lensed [l(l+1)/2pi] C_l's
# for l=2 to 2500, i.e. number of multipoles equal to 2499
#
# -> if you prefer output in CAMB/HealPix/LensPix units/order, set 'format' to 'camb' in input file
# -> if you don't want to see such a header, set 'headers' to 'no' in input file
# -> for CMB lensing (phi), these are C_l^phi-phi for the lensing potential.
#    Remember the conversion factors:
#    C_l^dd (deflection) = l(l+1) C_l^phi-phi
#    C_l^gg (shear/convergence) = 1/4 (l(l+1))^2 C_l^phi-phi
#
# 1:l     2:TT                     3:EE                     4:TE                     5:BB                     6:phiphi                 7:TPhi                   8:Ephi               
    2       1.376978922060e-10       4.367904373528e-15       3.593955644966e-13       2.323707258108e-19       8.180655325770e-09       4.509238133971e-10      -1.887230167077e-12 
    3       1.302898062394e-10       5.780494173768e-15       4.088968482162e-13       4.648428254426e-19       5.085668545669e-09       3.204637122901e-10      -1.455612768818e-12 
    4       1.232430002375e-10       5.172562569913e-15       3.864027641289e-13       7.749611066888e-19       3.544563852686e-09       2.429292177489e-10      -9.781030272356e-13 
    5       1.179529663334e-10       3.575022687249e-15       3.323265376921e-13       1.162854649731e-18       2.647080219128e-09       1.920114390476e-10      -5.670760210404e-13 
    6       1.142806465213e-10       2.056740060274e-15       2.699811341408e-13       1.628679727333e-18       2.066994898243e-09       1.562461144908e-10      -2.554526727850e-13 
    7       1.118797594608e-10       1.111664241688e-15       2.132081384689e-13       2.172616661926e-18       1.667316026299e-09       1.300089208383e-10      -4.822707820196e-14 
    8       1.104869221600e-10       6.936112473859e-16       1.683728884689e-13       2.794866284504e-18       1.378679310266e-09       1.101539943571e-10       6.588025927654e-14 
    9       1.098012887799e-10       5.474028644992e-16       1.373604372023e-13       3.495646106673e-18       1.161851983343e-09       9.472400954149e-11       1.070983766318e-13 
   10       1.096485212819e-10       4.730579404607e-16       1.192784319452e-13       4.275186324628e-18       9.937552901274e-10       8.245147579870e-11       9.928052072184e-14 
   11       1.099223959303e-10       4.022253154432e-16       1.116495064007e-13       5.133725776929e-18       8.367611204820e-10       7.286352099024e-11       6.584556795157e-14 
   12       1.105291426239e-10       3.459580485584e-16       1.115128199658e-13       6.071507976635e-18       7.313611730754e-10       6.444500402174e-11       2.503041710783e-14 
   13       1.113531804282e-10       3.229926365233e-16       1.161357807212e-13       7.088777332710e-18       6.448038393359e-10       5.755657163446e-11      -9.670439468989e-15 
   14       1.123962191734e-10       3.305884492423e-16       1.233171830520e-13       8.185775665900e-18       5.727759215313e-10       5.171050860815e-11      -3.172366946818e-14 
   15       1.136045215359e-10       3.546806574290e-16       1.314898429920e-13       9.362739110847e-18       5.121334374774e-10       4.658230587255e-11      -4.004989465541e-14 
   16       1.149271535645e-10       3.876395911414e-16       1.398079583850e-13       1.061989547970e-17       4.605588786272e-10       4.223588026848e-11      -3.702197738657e-14 
   17       1.163729855540e-10       4.328535048947e-16       1.480373025255e-13       1.195746214342e-17       4.163058704117e-10       3.851492889220e-11      -2.727587667391e-14 
   18       1.179163430386e-10       4.980000270897e-16       1.562193541240e-13       1.337564423401e-17       3.778879088798e-10       3.523590616877e-11      -1.588316599491e-14 
   19       1.195579336992e-10       5.855657794234e-16       1.646190388569e-13       1.487463480684e-17       3.446995917302e-10       3.234580463222e-11      -6.119777569422e-15 
   20       1.212574578386e-10       6.952020263134e-16       1.735479868207e-13       1.645461183459e-17       3.154632169845e-10       2.976005817199e-11      -7.261086109867e-16 
   21       1.230244643605e-10       8.253798411516e-16       1.830377648336e-13       1.811574184015e-17       2.897211781669e-10       2.747861271939e-11       6.441734277449e-17 
   22       1.248533169017e-10       9.738870705640e-16       1.929566041621e-13       1.985817655806e-17       2.668594038224e-10       2.548426655716e-11      -2.723471844660e-15 
   23       1.267426767529e-10       1.141143684697e-15       2.030362598612e-13       2.168205813045e-17       2.465647332816e-10       2.371225376120e-11      -7.496123172067e-15 
   24       1.286726281343e-10       1.328095055783e-15       2.129080922555e-13       2.358751571665e-17       2.283690653993e-10       2.206862081001e-11      -1.225102969337e-14 
   25       1.306482396226e-10       1.534402401243e-15       2.222466110394e-13       2.557467248451e-17       2.120590225386e-10       2.056973956713e-11      -1.571495707389e-14 
   26       1.326670954150e-10       1.759487250574e-15       2.307265435697e-13       2.764364152020e-17       1.973400611838e-10       1.924573718127e-11      -1.695471918354e-14 
   27       1.347283394154e-10       2.004812444372e-15       2.381530193020e-13       2.979453237327e-17       1.840364526219e-10       1.806132544620e-11      -1.617576977660e-14 
   28       1.368220205169e-10       2.272547279801e-15       2.443993512481e-13       3.202744828031e-17       1.719197764110e-10       1.695622419320e-11      -1.405830872337e-14 
   29       1.389530153881e-10       2.564420870449e-15       2.494924850362e-13       3.434249601294e-17       1.609285267569e-10       1.592897004100e-11      -1.126618181086e-14 
   30       1.411183578095e-10       2.882130270013e-15       2.535438279352e-13       3.673977815001e-17       1.509449205637e-10       1.499010970758e-11      -8.616138287269e-15 
   31       1.433049795485e-10       3.227328007954e-15       2.566843829044e-13       3.921939300928e-17       1.417656530536e-10       1.414191490574e-11      -6.941238334719e-15 
   32       1.455174155713e-10       3.600972119247e-15       2.589325285789e-13       4.178144587284e-17       1.333436830703e-10       1.337655175724e-11      -6.343125728415e-15 
   33       1.477579120146e-10       4.003718745638e-15       2.602785622352e-13       4.442604219913e-17       1.256198916553e-10       1.267545008053e-11      -6.656658757817e-15 
   34       1.500222344202e-10       4.436153478129e-15       2.606953127493e-13       4.715328603669e-17       1.184866554515e-10       1.201582998940e-11      -7.625112119594e-15 
   35       1.523145624060e-10       4.899055858502e-15       2.600558300289e-13       4.996328383303e-17       1.119075590630e-10       1.139540793654e-11      -8.862163630961e-15 
   36       1.546361363168e-10       5.393215725709e-15       2.581842189993e-13       5.285614245521e-17       1.058298059662e-10       1.081545440257e-11      -9.863601720045e-15 
   37       1.569838141648e-10       5.919390724969e-15       2.549062170103e-13       5.583196665869e-17       1.001743190634e-10       1.027488408340e-11      -1.015333334456e-14 
   38       1.593615680802e-10       6.478416528608e-15       2.501557903360e-13       5.889085275184e-17       9.492662454580e-11       9.773463577752e-12      -9.777221155488e-15 
   39       1.617716294633e-10       7.071127674459e-15       2.439030218597e-13       6.203289320238e-17       9.007027376935e-11       9.309179464287e-12      -8.972556859466e-15 
   40       1.642106667559e-10       7.698325236162e-15       2.361261911983e-13       6.525817853800e-17       8.555920349742e-11       8.877050440770e-12      -8.041389369218e-15 
   41       1.666722831419e-10       8.360745198218e-15       2.268165421263e-13       6.856679262237e-17       8.133381679148e-11       8.470880111963e-12      -7.285986830419e-15 
   42       1.691568873666e-10       9.058956554408e-15       2.159932751625e-13       7.195879625409e-17       7.738173478915e-11       8.089819720286e-12      -6.779573483510e-15 
   43       1.716640560842e-10       9.793426287625e-15       2.036942591217e-13       7.543423849422e-17       7.369247140396e-11       7.733509015263e-12      -6.528228761431e-15 
   44       1.741893673686e-10       1.056454173296e-14       1.899729433487e-13       7.899316091264e-17       7.023919707645e-11       7.400133939588e-12      -6.532894742087e-15 
   45       1.767273636494e-10       1.137265899864e-14       1.748734233421e-13       8.263559226854e-17       6.698833068725e-11       7.087127666768e-12      -6.779859922724e-15 
   46       1.792823703068e-10       1.221827550887e-14       1.583449166941e-13       8.636153108264e-17       6.393480114875e-11       6.793803998042e-12      -7.209827697018e-15 
   47       1.818602808891e-10       1.310190181318e-14       1.403030410254e-13       9.017095754628e-17       6.107511425074e-11       6.519308869953e-12      -7.738871690692e-15 
   48       1.844653302550e-10       1.402401220656e-14       1.206526207015e-13       9.406383774254e-17       5.839671838305e-11       6.261798807032e-12      -8.265793525277e-15 
   49       1.870999158911e-10       1.498504351176e-14       9.928698336015e-14       9.804012316893e-17       5.587733068317e-11       6.018369174250e-12      -8.671170954611e-15 
   50       1.897648677021e-10       1.598534984250e-14       7.611006921909e-14       1.020997503469e-16       5.349165826891e-11       5.785920195359e-12      -8.852009019199e-15 
   51       1.924607582555e-10       1.702505524243e-14       5.111146603641e-14       1.062426406326e-16       5.123527606869e-11       5.564198588095e-12      -8.838990201981e-15 
   52       1.951866393250e-10       1.810415894182e-14       2.431052554618e-14       1.104686995297e-16       4.910606556313e-11       5.353457526441e-12      -8.709405147539e-15 
   53       1.979394706622e-10       1.922257266955e-14      -4.264307907511e-15       1.147778161363e-16       4.709706805809e-11       5.153564072129e-12      -8.555037686506e-15 
   54       2.007139624198e-10       2.038011736392e-14      -3.457512730067e-14       1.191698626721e-16       4.519615883620e-11       4.963971557251e-12      -8.482888408201e-15 
   55       2.035047711044e-10       2.157659751306e-14      -6.658822319255e-14       1.236447049968e-16       4.338974965478e-11       4.783943827277e-12      -8.587589417536e-15 
   56       2.063140872561e-10       2.281205333746e-14      -1.003198862057e-13       1.282022383114e-16       4.167571981877e-11       4.613356473336e-12      -8.858966168603e-15 
   57       2.091456567019e-10       2.408656549374e-14      -1.358013346591e-13       1.328423594976e-16       4.005312671482e-11       4.452046269218e-12      -9.252779400381e-15 
   58       2.120025277235e-10       2.540018267503e-14      -1.730658538577e-13       1.375649568581e-16       3.851829368829e-11       4.299559332820e-12      -9.716650908319e-15 
   59       2.148869851761e-10       2.675292134628e-14      -2.121489726588e-13       1.423699100726e-16       3.706464114339e-11       4.155133321510e-12      -1.018968417610e-14 
   60       2.178004846062e-10       2.814476547967e-14      -2.530886400391e-13       1.472570901519e-16       3.568251764327e-11       4.017679627483e-12      -1.060208500740e-14 
   61       2.207439508804e-10       2.957556425979e-14      -2.959145922058e-13       1.522263780774e-16       3.436188255329e-11       3.886079674116e-12      -1.089109509729e-14 
   62       2.237189014428e-10       3.104469896665e-14      -3.406132655299e-13       1.572777257057e-16       3.310143971598e-11       3.760191801455e-12      -1.105383028674e-14 
   63       2.267264594236e-10       3.255134051110e-14      -3.871552854226e-13       1.624111085172e-16       3.190126354182e-11       3.640039820882e-12      -1.110568320092e-14 
   64       2.297669581374e-10       3.409454143434e-14      -4.355054177136e-13       1.676265086756e-16       3.076005150616e-11       3.525511174151e-12      -1.106519235974e-14 
   65       2.328398867664e-10       3.567323240591e-14      -4.856224022415e-13       1.729239155765e-16       2.967504572661e-11       3.416349094925e-12      -1.095418040679e-14 
   66       2.359438360452e-10       3.728621872173e-14      -5.374587864447e-13       1.783033263947e-16       2.864195454054e-11       3.312144770333e-12      -1.079789233838e-14 
   67       2.390764439440e-10       3.893217680213e-14      -5.909607589521e-13       1.837647466326e-16       2.765487408246e-11       3.212329502512e-12      -1.062513373255e-14 
   68       2.422353795101e-10       4.060979957264e-14      -6.460773124867e-13       1.893081973432e-16       2.670786640958e-11       3.116332503701e-12      -1.046224355987e-14 
   69       2.454216472977e-10       4.231827464184e-14      -7.027902605275e-13       1.949337372746e-16       2.580024049967e-11       3.024108931028e-12      -1.031328547139e-14 
   70       2.486368580029e-10       4.405689716901e-14      -7.610900318139e-13       2.006414462178e-16       2.493220535729e-11       2.935705255738e-12      -1.017607262295e-14 
   71       2.518822222825e-10       4.582492985447e-14      -8.209669500778e-13       2.064314194338e-16       2.410327273570e-11       2.851099558680e-12      -1.004795885163e-14 
   72       2.551585229889e-10       4.762160324537e-14      -8.824113062360e-13       2.123037683723e-16       2.331222108126e-11       2.770197928011e-12      -9.925819221337e-15 
   73       2.584660874055e-10       4.944611604146e-14      -9.454134305818e-13       2.182586213903e-16       2.255705947780e-11       2.692830856895e-12      -9.806030568541e-15 
   74       2.618047594818e-10       5.129763540079e-14      -1.009963764977e-12       2.242961244710e-16       2.183499159105e-11       2.618749641198e-12      -9.684452047911e-15 
   75       2.651738720690e-10       5.317529724555e-14      -1.076052935046e-12       2.304164419422e-16       2.114237961297e-11       2.547622777194e-12      -9.556405678008e-15 
   76       2.685727149159e-10       5.507812939591e-14      -1.143666361608e-12       2.366197450338e-16       2.047564792112e-11       2.479118960263e-12      -9.417959151151e-15 
   77       2.720020985590e-10       5.700480411354e-14      -1.212766800972e-12       2.429061735521e-16       1.983426400244e-11       2.413181517400e-12      -9.270087332568e-15 
   78       2.754630264973e-10       5.895384077910e-14      -1.283308737147e-12       2.492758684899e-16       1.921823813502e-11       2.349797706656e-12      -9.115237811819e-15 
   79       2.789562074170e-10       6.092367780479e-14      -1.355243521007e-12       2.557289840294e-16       1.862721538239e-11       2.288914758804e-12      -8.956103093273e-15 
   80       2.824820375927e-10       6.291267135767e-14      -1.428519330502e-12       2.622656880112e-16       1.806045880751e-11       2.230438050867e-12      -8.795627845769e-15 
   81       2.860405832887e-10       6.491909408296e-14      -1.503081130872e-12       2.688861624040e-16       1.751683268681e-11       2.174229279639e-12      -8.637016152271e-15 
   82       2.896315631601e-10       6.694113382728e-14      -1.578870634870e-12       2.755906037733e-16       1.699478572416e-11       2.120104635211e-12      -8.483738759524e-15 
   83       2.932543306540e-10       6.897689236198e-14      -1.655826262964e-12       2.823792237511e-16       1.649233426489e-11       2.067832974486e-12      -8.339540327713e-15 
   84       2.969082071815e-10       7.102446723377e-14      -1.733886570140e-12       2.892522474455e-16       1.600754476853e-11       2.017193541667e-12      -8.207679760700e-15 
   85       3.005935836426e-10       7.308221570371e-14      -1.813001266133e-12       2.962099073380e-16       1.554010989599e-11       1.968164124915e-12      -8.088490617541e-15 
   86       3.043109700933e-10       7.514853242642e-14      -1.893121957665e-12       3.032524492301e-16       1.509000414278e-11       1.920760888350e-12      -7.981427680356e-15 
   87       3.080606496803e-10       7.722177033161e-14      -1.974198862504e-12       3.103801346413e-16       1.465699953985e-11       1.874980784938e-12      -7.885792358503e-15 
   88       3.118426669376e-10       7.930024074455e-14      -2.056180827945e-12       3.175932412438e-16       1.424065725855e-11       1.830800730800e-12      -7.800727048828e-15 
   89       3.156568160826e-10       8.138221350642e-14      -2.139015349282e-12       3.248920632970e-16       1.384031921545e-11       1.788176779529e-12      -7.725209495924e-15 
   90       3.195026293131e-10       8.346591709470e-14      -2.222648588289e-12       3.322769120824e-16       1.345509967736e-11       1.747043296495e-12      -7.658047152385e-15 
   91       3.233793651039e-10       8.554953874358e-14      -2.307025391694e-12       3.397481163378e-16       1.308387686613e-11       1.707312133165e-12      -7.597871539057e-15 
   92       3.272859965028e-10       8.763122456432e-14      -2.392089309653e-12       3.473060226925e-16       1.272528456362e-11       1.668871801409e-12      -7.543132605297e-15 
   93       3.312215321099e-10       8.970910112044e-14      -2.477782377267e-12       3.549510096319e-16       1.237803645753e-11       1.631614998535e-12      -7.492331412183e-15 
   94       3.351860596572e-10       9.178134360378e-14      -2.564044381375e-12       3.626835308508e-16       1.204197321478e-11       1.595527711309e-12      -7.444770463422e-15 
   95       3.391798384747e-10       9.384611818240e-14      -2.650813517133e-12       3.705040792546e-16       1.171715809910e-11       1.560612048930e-12      -7.399906322036e-15 
   96       3.432029737526e-10       9.590156186877e-14      -2.738026630174e-12       3.784131746217e-16       1.140355448560e-11       1.526858655709e-12      -7.357119005961e-15 
   97       3.472554094038e-10       9.794578293465e-14      -2.825619231834e-12       3.864113642243e-16       1.110102203310e-11       1.494246274552e-12      -7.315709619718e-15 
   98       3.513369209279e-10       9.997686132595e-14      -2.913525514370e-12       3.944992234485e-16       1.080931285656e-11       1.462741310437e-12      -7.274897986091e-15 
   99       3.554471082736e-10       1.019928490777e-13      -3.001678366192e-12       4.026773564148e-16       1.052806769944e-11       1.432297393889e-12      -7.233820277801e-15 
  100       3.595853887024e-10       1.039917707288e-13      -3.090009387081e-12       4.109463965984e-16       1.025681210612e-11       1.402854944459e-12      -7.191526649181e-15 
  101       3.637509896518e-10       1.059716237372e-13      -3.178448903413e-12       4.193070074497e-16       9.994952594275e-12       1.374340734204e-12      -7.146978867852e-15 
  102       3.679429415983e-10       1.079303788943e-13      -3.266925983387e-12       4.277598830144e-16       9.741772827242e-12       1.346667451162e-12      -7.099047946394e-15 
  103       3.721600709208e-10       1.098659807405e-13      -3.355368452243e-12       4.363057485544e-16       9.496429786438e-12       1.319733262829e-12      -7.046511774027e-15 
  104       3.764012477935e-10       1.117764010066e-13      -3.443703792805e-12       4.449453344816e-16       9.258144985058e-12       1.293445587595e-12      -6.988364565536e-15 
  105       3.806661833741e-10       1.136598062686e-13      -3.531861952839e-12       4.536792928151e-16       9.026815770801e-12       1.267797006379e-12      -6.924797916603e-15 
  106       3.849547275005e-10       1.155144138199e-13      -3.619772947073e-12       4.625082705428e-16       8.802479849897e-12       1.242798839484e-12      -6.856348476465e-15 
  107       3.892666189953e-10       1.173384416517e-13      -3.707366030400e-12       4.714329356231e-16       8.585125955907e-12       1.218457685916e-12      -6.783599010542e-15 
